          t (s)                 A (M)                       B (M)                   C (M) 
0.000000000000000000e+00 1.002420578808677076e+00 1.508765751350790607e+00 -4.379152307821003801e-03
6.060606060606060774e-02 9.149607988542877157e-01 1.421522038291903600e+00 8.720124177721891301e-02
1.212121212121212155e-01 8.447350244179753220e-01 1.335372299639328464e+00 1.584110103976936190e-01
1.818181818181818232e-01 7.797401419663776423e-01 1.279343206356261975e+00 2.195408913705814424e-01
2.424242424242424310e-01 7.134231494025577991e-01 1.211926341634596671e+00 2.867483006001840806e-01
3.030303030303030387e-01 6.692243513702980096e-01 1.163918368957667759e+00 3.273587866907773924e-01
3.636363636363636465e-01 6.236493102382180131e-01 1.133660714152036064e+00 3.710338885869863268e-01
4.242424242424242542e-01 5.791057065151586913e-01 1.077556700316525840e+00 4.102759793927115983e-01
4.848484848484848619e-01 5.543559551452812428e-01 1.047838159691048432e+00 4.569365531009166315e-01
5.454545454545454142e-01 5.148433076677676468e-01 1.009501951837836309e+00 4.820988489464771987e-01
6.060606060606060774e-01 4.866761652903268121e-01 9.765830805305401041e-01 5.145384841153873845e-01
6.666666666666667407e-01 4.503435857529761166e-01 9.533356100502916597e-01 5.383868112155918428e-01
7.272727272727272929e-01 4.321815540109269493e-01 9.323445519025029826e-01 5.766070620624402787e-01
7.878787878787878451e-01 4.029471741839514842e-01 9.001640046067330703e-01 5.871908650426325149e-01
8.484848484848485084e-01 3.965321164559060252e-01 8.968258478643456044e-01 6.056375253920938118e-01
9.090909090909091717e-01 3.666767824088909000e-01 8.693361153935293961e-01 6.232840337421624577e-01
9.696969696969697239e-01 3.472020781739469930e-01 8.482456527166026827e-01 6.565909080649253715e-01
1.030303030303030276e+00 3.319361209032394844e-01 8.273591277414718004e-01 6.612587299196939217e-01
1.090909090909090828e+00 3.109777350849403099e-01 8.230167818291749260e-01 6.811551128039987635e-01
1.151515151515151603e+00 3.086303677021028924e-01 7.948693326517273228e-01 7.022461857416690822e-01
1.212121212121212155e+00 2.882409707163631762e-01 7.878122394586646315e-01 7.145747470956840264e-01
1.272727272727272707e+00 2.739412535724650155e-01 7.822053642358053338e-01 7.249297084511138189e-01
1.333333333333333481e+00 2.510726422472388530e-01 7.532313245709728600e-01 7.492456640846580918e-01
1.393939393939394034e+00 2.462128009643262949e-01 7.544850942422445250e-01 7.551391917611446347e-01
1.454545454545454586e+00 2.290829946490352542e-01 7.458740842370129576e-01 7.605389765625442111e-01
1.515151515151515138e+00 2.309604336891704912e-01 7.368818155448683127e-01 7.657216174529520858e-01
1.575757575757575690e+00 2.272757309713541174e-01 7.178453417500879619e-01 7.805593269013357816e-01
1.636363636363636465e+00 2.049211291975260585e-01 7.098028184771256743e-01 7.999699935044664034e-01
1.696969696969697017e+00 1.936732127657933289e-01 7.035907990688118341e-01 7.915684349450502477e-01
1.757575757575757569e+00 1.871247659658947515e-01 6.827993336119879686e-01 8.070022029347337922e-01
1.818181818181818343e+00 1.791929618767794108e-01 6.819218572518507271e-01 8.250138650568389354e-01
1.878787878787878896e+00 1.786904999108465120e-01 6.708492306157934904e-01 8.138125599270054078e-01
1.939393939393939448e+00 1.757957288052301725e-01 6.637588185245485439e-01 8.258065087592106890e-01
2.000000000000000000e+00 1.659809555494382582e-01 6.546218601253944724e-01 8.353121255618708441e-01
2.060606060606060552e+00 1.568100663868997879e-01 6.600342769323244152e-01 8.458568196383995375e-01
2.121212121212121104e+00 1.555211698935485554e-01 6.454714939671375440e-01 8.561862205265988734e-01
2.181818181818181657e+00 1.426055757337221230e-01 6.406728189427760567e-01 8.633495959179975365e-01
2.242424242424242653e+00 1.427625896182177223e-01 6.340452642981415643e-01 8.577586383120702207e-01
2.303030303030303205e+00 1.328200998434761471e-01 6.284632780874219726e-01 8.570066488813818939e-01
2.363636363636363757e+00 1.361313517015822760e-01 6.343577924406368362e-01 8.668808969730555924e-01
2.424242424242424310e+00 1.273966607848742993e-01 6.215064180197021892e-01 8.810857331713186635e-01
2.484848484848484862e+00 1.121181401102955971e-01 6.119003015037655091e-01 8.734251591548133353e-01
2.545454545454545414e+00 1.092068554274736591e-01 6.241691550791114151e-01 8.927766867971955733e-01
2.606060606060605966e+00 1.016118876690417089e-01 6.146156825749451436e-01 8.853672406125315808e-01
2.666666666666666963e+00 1.169061770347951390e-01 6.133779471778798564e-01 8.847224783792724256e-01
2.727272727272727515e+00 1.107012322896250012e-01 5.991733371388362484e-01 9.029188043440917744e-01
2.787878787878788067e+00 8.964597924027391251e-02 6.050329108056526906e-01 8.953543931792983246e-01
2.848484848484848619e+00 1.003682724844985746e-01 5.967341293191037455e-01 8.988680186043026543e-01
2.909090909090909172e+00 9.378583996168590731e-02 6.021232740856529153e-01 9.140684215966565773e-01
2.969696969696969724e+00 9.198581205972414243e-02 5.812156469728192443e-01 9.102365674172989696e-01
3.030303030303030276e+00 8.982367601539127666e-02 5.941645082167837932e-01 9.088024612202976193e-01
3.090909090909090828e+00 7.437099687870940556e-02 5.907939210874005864e-01 9.187994520972249113e-01
3.151515151515151381e+00 7.745896908921751089e-02 5.738004869649105943e-01 9.272775317630257419e-01
3.212121212121212377e+00 8.576229004970253866e-02 5.847484180856846736e-01 9.299454319538599245e-01
3.272727272727272929e+00 7.339723507371102851e-02 5.748555225766014409e-01 9.344460340416730348e-01
3.333333333333333481e+00 7.233561266629293107e-02 5.731240487390919514e-01 9.357437060699844711e-01
3.393939393939394034e+00 7.113553511203443702e-02 5.791536067210225625e-01 9.352155687557963670e-01
3.454545454545454586e+00 5.894826996581926937e-02 5.617220749316723660e-01 9.363609144172505561e-01
3.515151515151515138e+00 7.118581218819709788e-02 5.586360447106445415e-01 9.339123237727406934e-01
3.575757575757575690e+00 6.078006185005924156e-02 5.692741416407127719e-01 9.413503184329627960e-01
3.636363636363636687e+00 6.446468508973922373e-02 5.567757858347907041e-01 9.456303149766449589e-01
3.696969696969697239e+00 6.848183664312175456e-02 5.661536206900604773e-01 9.316251846849845641e-01
3.757575757575757791e+00 5.538024858034301667e-02 5.590651170050219276e-01 9.515009760609115519e-01
3.818181818181818343e+00 5.682817170676021656e-02 5.479193937630629785e-01 9.365375758268502659e-01
3.878787878787878896e+00 5.200838685623119378e-02 5.463159090930639339e-01 9.397417232314749791e-01
3.939393939393939448e+00 5.459774929140159827e-02 5.419541738182409585e-01 9.575423273474077401e-01
4.000000000000000000e+00 5.483086929872118404e-02 5.406185392066932272e-01 9.423270999938143655e-01
4.060606060606060552e+00 3.885297932296810641e-02 5.485010101474429023e-01 9.523770847582885279e-01
4.121212121212121104e+00 3.697914550745234202e-02 5.501454113805653856e-01 9.470858906369340469e-01
4.181818181818181657e+00 4.569806899158970065e-02 5.400692333764803843e-01 9.564002225044743177e-01
4.242424242424242209e+00 4.532101947794619362e-02 5.483831267422573097e-01 9.472146989095381331e-01
4.303030303030302761e+00 4.827534348378880596e-02 5.449270082746716648e-01 9.502504147098753684e-01
4.363636363636363313e+00 4.608488654561680026e-02 5.420413739043851153e-01 9.537397720054432426e-01
4.424242424242424754e+00 4.669806674005612390e-02 5.486291517005368323e-01 9.544733764600603632e-01
4.484848484848485306e+00 4.722990362873651093e-02 5.336652197579743184e-01 9.570051461092826672e-01
4.545454545454545858e+00 3.771183297667447115e-02 5.331108063125351570e-01 9.713412235187026678e-01
4.606060606060606410e+00 3.393854898336288312e-02 5.281964650690099683e-01 9.550834832684587106e-01
4.666666666666666963e+00 3.860092718489282343e-02 5.309981238271741510e-01 9.612567535173809352e-01
4.727272727272727515e+00 3.083865114346956079e-02 5.382462265981251548e-01 9.567773766559454218e-01
4.787878787878788067e+00 3.172233094718529545e-02 5.355409626189404637e-01 9.619343298123121944e-01
4.848484848484848619e+00 2.619648044540305934e-02 5.369425465133156328e-01 9.769972628292489247e-01
4.909090909090909172e+00 2.622299504227799602e-02 5.369832655097255270e-01 9.663467803075755924e-01
4.969696969696969724e+00 2.056408879545920318e-02 5.296777133260569537e-01 9.787085472230918626e-01
5.030303030303030276e+00 3.394261805985951397e-02 5.225026086016788529e-01 9.798335675829356051e-01
5.090909090909090828e+00 3.287013415218083962e-02 5.327391101386181882e-01 9.749211527596378657e-01
5.151515151515151381e+00 3.282478529530452604e-02 5.361084751991881392e-01 9.722572928658952396e-01
5.212121212121211933e+00 2.987888286175011815e-02 5.313326190449579878e-01 9.814115437172250545e-01
5.272727272727272485e+00 2.258563888476331286e-02 5.324499767724977239e-01 9.795765780972145453e-01
5.333333333333333925e+00 2.468167940040174799e-02 5.212014561598173890e-01 9.709149365913358753e-01
5.393939393939394478e+00 1.977135769582941127e-02 5.241372834853204044e-01 9.832496695636279149e-01
5.454545454545455030e+00 1.831380051772907303e-02 5.210667743907684279e-01 9.675277308649629093e-01
5.515151515151515582e+00 1.362835050892540964e-02 5.236156284886031020e-01 9.722872097324040119e-01
5.575757575757576134e+00 2.623453725507165352e-02 5.192911759355016699e-01 9.781426891738750351e-01
5.636363636363636687e+00 2.816296681994131385e-02 5.128085381294774647e-01 9.745708349940317428e-01
5.696969696969697239e+00 1.753142894461665741e-02 5.216895621011459205e-01 9.702366521891420126e-01
5.757575757575757791e+00 2.484293496801888088e-02 5.198138317050460255e-01 9.806326944802921108e-01
5.818181818181818343e+00 9.549087132221915214e-03 5.221329999344263006e-01 9.737650047190540281e-01
5.878787878787878896e+00 1.322374029880624136e-02 5.224295704762870196e-01 9.875642931765256094e-01
5.939393939393939448e+00 2.114314192174681153e-02 5.203260967132692372e-01 9.868791367350682187e-01
6.000000000000000000e+00 2.496881348460638916e-02 5.196021845198028899e-01 9.822276852351635723e-01
